# dimensionless total lensed [l(l+1)/2pi] C_l's
# for l=2 to 2500, i.e. number of multipoles equal to 2499
#
# -> if you prefer output in CAMB/HealPix/LensPix units/order, set 'format' to 'camb' in input file
# -> if you don't want to see such a header, set 'headers' to 'no' in input file
# -> for CMB lensing (phi), these are C_l^phi-phi for the lensing potential.
#    Remember the conversion factors:
#    C_l^dd (deflection) = l(l+1) C_l^phi-phi
#    C_l^gg (shear/convergence) = 1/4 (l(l+1))^2 C_l^phi-phi
#
# 1:l     2:TT                     3:EE                     4:TE                     5:BB                     6:phiphi                 7:TPhi                   8:Ephi               
    2       1.495442760238e-10       7.309265059077e-15       4.815171148055e-13       2.388861354021e-19       8.628903609866e-09       4.854772121440e-10      -2.515854151612e-12 
    3       1.409375667267e-10       1.238839452130e-14       6.068719461066e-13       4.780044762215e-19       5.411291720700e-09       3.469573579985e-10      -2.211507031142e-12 
    4       1.324638934011e-10       1.446592354283e-14       6.277975858828e-13       7.971819622065e-19       3.776588552530e-09       2.639785058321e-10      -1.764116067079e-12 
    5       1.257528917630e-10       1.337973190995e-14       5.879550144243e-13       1.196705758252e-18       2.821984230395e-09       2.093815846385e-10      -1.309529286449e-12 
    6       1.208087576862e-10       1.032478441010e-14       5.173987897654e-13       1.676916253867e-18       2.205212283182e-09       1.709429020613e-10      -8.948468925424e-13 
    7       1.173342232859e-10       6.843838595452e-15       4.365330660525e-13       2.238195780616e-18       1.778233642811e-09       1.425663892129e-10      -5.443860557493e-13 
    8       1.150094177837e-10       4.045255171741e-15       3.576614997188e-13       2.880956109958e-18       1.468351551337e-09       1.208855296512e-10      -2.689334595815e-13 
    9       1.135899950877e-10       2.339962952353e-15       2.880577371205e-13       3.605625225832e-18       1.235838581884e-09       1.038809745635e-10      -7.009986714726e-14 
   10       1.128613019383e-10       1.576066392419e-15       2.317780349446e-13       4.412633893507e-18       1.056623422339e-09       9.029297643014e-11       5.745597591392e-14 
   11       1.126830763616e-10       1.351208675848e-15       1.905546770879e-13       5.302402552200e-18       8.886898865977e-10       7.950622504525e-11       1.233291888799e-13 
   12       1.129466838701e-10       1.294588313270e-15       1.640599038091e-13       6.275329043569e-18       7.765278494141e-10       7.028426773461e-11       1.421600854711e-13 
   13       1.135320832246e-10       1.208007400947e-15       1.505250308444e-13       7.331777651900e-18       6.844563326720e-10       6.274647657081e-11       1.277329344097e-13 
   14       1.143407944782e-10       1.063264028691e-15       1.473981485518e-13       8.472069876275e-18       6.078507022024e-10       5.620932594556e-11       9.279532797449e-14 
   15       1.153792176171e-10       9.202377751244e-16       1.516646923598e-13       9.696477282347e-18       5.433693950120e-10       5.074770478394e-11       4.959311367849e-14 
   16       1.166084644229e-10       8.404031749139e-16       1.602810277363e-13       1.100521669462e-17       4.885455305494e-10       4.611880776802e-11       7.232457040186e-15 
   17       1.179455004507e-10       8.411741250705e-16       1.707678006631e-13       1.239844789284e-17       4.415155574458e-10       4.212235238785e-11      -2.792920720839e-14 
   18       1.193943884447e-10       8.950457246840e-16       1.812583734780e-13       1.387627264617e-17       4.006946007208e-10       3.857273443210e-11      -5.233421673738e-14 
   19       1.209630579439e-10       9.693348481932e-16       1.907730515515e-13       1.543874362072e-17       3.654375303385e-10       3.544037490893e-11      -6.510245740959e-14 
   20       1.225956289107e-10       1.030562381839e-15       1.985685572882e-13       1.708585612466e-17       3.343837603188e-10       3.267209093262e-11      -6.706958872052e-14 
   21       1.243040213714e-10       1.081655448282e-15       2.047244302448e-13       1.881757332317e-17       3.070458377125e-10       3.022365760974e-11      -6.038518100706e-14 
   22       1.260879329627e-10       1.140726895533e-15       2.096934197157e-13       2.063381637530e-17       2.827706821182e-10       2.801369696996e-11      -4.840846307909e-14 
   23       1.279365714928e-10       1.227172459615e-15       2.139233701451e-13       2.253449440713e-17       2.612248133579e-10       2.601113352538e-11      -3.407762182492e-14 
   24       1.298178542179e-10       1.359591118157e-15       2.179345848404e-13       2.451949460218e-17       2.419102419149e-10       2.418236688514e-11      -2.047693835757e-14 
   25       1.317486508147e-10       1.538392513234e-15       2.222217828707e-13       2.658871714799e-17       2.246000751466e-10       2.253677513514e-11      -9.447600198199e-15 
   26       1.337412869142e-10       1.756560534886e-15       2.272302524646e-13       2.874206311032e-17       2.089813615615e-10       2.107676212803e-11      -2.331878386082e-15 
   27       1.357769111643e-10       2.007678386861e-15       2.329801813106e-13       3.097946505742e-17       1.948668547997e-10       1.976942456281e-11       6.620874327554e-16 
   28       1.378198932226e-10       2.285336749113e-15       2.392873939537e-13       3.330087931908e-17       1.820132713737e-10       1.856394747114e-11      -9.525867400227e-17 
   29       1.398799669953e-10       2.589051789037e-15       2.458479740122e-13       3.570632126638e-17       1.703550513382e-10       1.745584714629e-11      -3.801164573906e-15 
   30       1.419713720086e-10       2.920067199749e-15       2.522262643450e-13       3.819584559015e-17       1.597671042251e-10       1.644630635283e-11      -9.226625327954e-15 
   31       1.440979621692e-10       3.279007071321e-15       2.579084727336e-13       4.076954621063e-17       1.500335693874e-10       1.552718272764e-11      -1.492866702486e-14 
   32       1.462626252014e-10       3.663758715352e-15       2.625223781174e-13       4.342757984582e-17       1.411042583349e-10       1.468921756906e-11      -2.002927037402e-14 
   33       1.484586618320e-10       4.070695959186e-15       2.656892041511e-13       4.617015968691e-17       1.329161010316e-10       1.391497884165e-11      -2.370100762752e-14 
   34       1.506731989058e-10       4.496668876050e-15       2.670412862731e-13       4.899754915440e-17       1.253545982644e-10       1.318309511803e-11      -2.518539310906e-14 
   35       1.529128657881e-10       4.944269820084e-15       2.664970852493e-13       5.191004347977e-17       1.183811086778e-10       1.249406564341e-11      -2.459200535503e-14 
   36       1.551854459353e-10       5.418475913745e-15       2.640842963343e-13       5.490798958487e-17       1.119397476334e-10       1.185261106352e-11      -2.238999266537e-14 
   37       1.574933371341e-10       5.924454819925e-15       2.598749251800e-13       5.799177106717e-17       1.059467510502e-10       1.126053901342e-11      -1.915231555196e-14 
   38       1.598370062114e-10       6.464531441350e-15       2.540004632723e-13       6.116172459999e-17       1.003866708088e-10       1.071669764888e-11      -1.535846009083e-14 
   39       1.622114442083e-10       7.040265219663e-15       2.466473394139e-13       6.441820122092e-17       9.524189568052e-11       1.021645803218e-11      -1.154171507118e-14 
   40       1.646043524525e-10       7.653263647560e-15       2.380572486916e-13       6.776159179119e-17       9.046338875460e-11       9.751313026212e-12      -8.351242856089e-15 
   41       1.670017818249e-10       8.304886767306e-15       2.284586263049e-13       7.119228854694e-17       8.598777931672e-11       9.311590205866e-12      -6.389558483103e-15 
   42       1.694089273126e-10       8.995242772724e-15       2.178260461428e-13       7.471054894881e-17       8.180192049971e-11       8.896429005091e-12      -5.644106415830e-15 
   43       1.718349342820e-10       9.723866982072e-15       2.060482353730e-13       7.831659153737e-17       7.789473302210e-11       8.506507951566e-12      -5.882707450966e-15 
   44       1.742868951288e-10       1.048997092615e-14       1.929917401896e-13       8.201063254096e-17       7.423783283550e-11       8.141177035531e-12      -6.802860760593e-15 
   45       1.767695088104e-10       1.129272580001e-14       1.785110623248e-13       8.579284873539e-17       7.079567617462e-11       7.798901392734e-12      -8.072935803309e-15 
   46       1.792845493325e-10       1.213225974606e-14       1.624863291520e-13       8.966325381188e-17       6.756285817858e-11       7.479019635312e-12      -9.481084755073e-15 
   47       1.818307971171e-10       1.300892560399e-14       1.447942529914e-13       9.362178430500e-17       6.453562146058e-11       7.180316938463e-12      -1.082316022719e-14 
   48       1.844038490657e-10       1.392302190560e-14       1.252965727794e-13       9.766833060293e-17       6.170060574738e-11       6.900432858466e-12      -1.185902977042e-14 
   49       1.869958544941e-10       1.487479085256e-14       1.038391794017e-13       1.018027343969e-16       5.903413372829e-11       6.635779264291e-12      -1.231068841499e-14 
   50       1.895987293699e-10       1.586442717645e-14       8.029467223999e-14       1.060247826621e-16       5.650934394005e-11       6.382580618676e-12      -1.195046027428e-14 
   51       1.922154402163e-10       1.689211224588e-14       5.470567612863e-14       1.103341935932e-16       5.412152877501e-11       6.140518109945e-12      -1.089820677621e-14 
   52       1.948513266429e-10       1.795798572182e-14       2.717891425190e-14       1.147306224419e-16       5.186843973498e-11       5.909932818345e-12      -9.401529656316e-15 
   53       1.975107927403e-10       1.906213401007e-14      -2.153681605941e-15       1.192136620029e-16       4.974270481578e-11       5.690761261770e-12      -7.755029070393e-15 
   54       2.001972067000e-10       2.020458875120e-14      -3.313380190490e-14       1.237828398995e-16       4.773148362849e-11       5.482506143828e-12      -6.302655619844e-15 
   55       2.029129428452e-10       2.138534248268e-14      -6.561525827109e-14       1.284376707934e-16       4.582038621808e-11       5.284466358724e-12      -5.357166465352e-15 
   56       2.056597499147e-10       2.260440364135e-14      -9.959335837856e-14       1.331778344181e-16       4.400715962525e-11       5.096560929991e-12      -4.929674442764e-15 
   57       2.084382984440e-10       2.386175257962e-14      -1.351056226973e-13       1.380030370191e-16       4.229079727813e-11       4.918658518751e-12      -4.937032898724e-15 
   58       2.112479536001e-10       2.515732476756e-14      -1.721953004447e-13       1.429129597445e-16       4.066739831535e-11       4.750317365866e-12      -5.277986608901e-15 
   59       2.140866803494e-10       2.649100995174e-14      -2.109117459395e-13       1.479072580709e-16       3.912998882533e-11       4.590766140904e-12      -5.832294092534e-15 
   60       2.169509486255e-10       2.786265131422e-14      -2.513107949551e-13       1.529855612293e-16       3.766834308564e-11       4.438884791114e-12      -6.459849926970e-15 
   61       2.198372222503e-10       2.927198889342e-14      -2.934433020858e-13       1.581475504222e-16       3.627182363652e-11       4.293507962887e-12      -7.029631617071e-15 
   62       2.227470307755e-10       3.071847690923e-14      -3.373168948273e-13       1.633932152871e-16       3.493905084837e-11       4.154458177354e-12      -7.516118408377e-15 
   63       2.256828729698e-10       3.220142375547e-14      -3.829262635665e-13       1.687226542425e-16       3.367009645609e-11       4.021711633707e-12      -7.923055736449e-15 
   64       2.286466898237e-10       3.372004156174e-14      -4.302642437360e-13       1.741360026650e-16       3.246357491652e-11       3.895087361218e-12      -8.255607690111e-15 
   65       2.316398199691e-10       3.527344358379e-14      -4.793218165253e-13       1.796334348148e-16       3.131656043313e-11       3.774238303198e-12      -8.520425636564e-15 
   66       2.346629550973e-10       3.686064159396e-14      -5.300881095929e-13       1.852151657623e-16       3.022450398060e-11       3.658642400945e-12      -8.725716846501e-15 
   67       2.377160953788e-10       3.848054327153e-14      -5.825503977773e-13       1.908814533138e-16       2.918115032950e-11       3.547593677704e-12      -8.881313119222e-15 
   68       2.407990165846e-10       4.013207033662e-14      -6.366940474944e-13       1.966325880982e-16       2.818020885783e-11       3.440400303674e-12      -8.997649185743e-15 
   69       2.439128810152e-10       4.181454658125e-14      -6.925023352547e-13       2.024688571887e-16       2.722094459223e-11       3.337045324545e-12      -9.082304145073e-15 
   70       2.470588744006e-10       4.352738413683e-14      -7.499565934819e-13       2.083905765359e-16       2.630357620360e-11       3.237644411920e-12      -9.142879293088e-15 
   71       2.502376921495e-10       4.526997015729e-14      -8.090362628584e-13       2.143981037493e-16       2.542758501996e-11       3.142247170528e-12      -9.188066350170e-15 
   72       2.534495078550e-10       4.704166729751e-14      -8.697188915964e-13       2.204918397207e-16       2.459167690496e-11       3.050833515813e-12      -9.227688203408e-15 
   73       2.566939418006e-10       4.884181419184e-14      -9.319801347094e-13       2.266722302470e-16       2.379374413644e-11       2.963310051517e-12      -9.272739648795e-15 
   74       2.599700294663e-10       5.066972593251e-14      -9.957937532832e-13       2.329397676540e-16       2.303082728489e-11       2.879506447275e-12      -9.335428133429e-15 
   75       2.632761900345e-10       5.252469454812e-14      -1.061131613747e-12       2.392949924191e-16       2.229907709203e-11       2.799171816197e-12      -9.429214497707e-15 
   76       2.666108699218e-10       5.440582969506e-14      -1.127960789366e-12       2.457383959030e-16       2.159471006883e-11       2.722041269168e-12      -9.564914038628e-15 
   77       2.699746784720e-10       5.631154613557e-14      -1.196234256107e-12       2.522701044780e-16       2.091716073664e-11       2.648057596595e-12      -9.738088809201e-15 
   78       2.733685863085e-10       5.823998323386e-14      -1.265898490914e-12       2.588901404803e-16       2.026643762404e-11       2.577183618018e-12      -9.939419582859e-15 
   79       2.767932674914e-10       6.018915369906e-14      -1.336896159793e-12       2.655985155940e-16       1.964216308510e-11       2.509333443579e-12      -1.015840217605e-14 
   80       2.802490818658e-10       6.215694078710e-14      -1.409166057659e-12       2.723952304461e-16       1.904355555488e-11       2.444370290643e-12      -1.038330740413e-14 
   81       2.837360574097e-10       6.414109550259e-14      -1.482643048192e-12       2.792802742023e-16       1.846941180500e-11       2.382104300415e-12      -1.060114103724e-14 
   82       2.872538725818e-10       6.613923380075e-14      -1.557258003680e-12       2.862536241620e-16       1.791808919917e-11       2.322290354558e-12      -1.079760375622e-14 
   83       2.908018386694e-10       6.814883378929e-14      -1.632937744876e-12       2.933152453538e-16       1.738748794879e-11       2.264625891812e-12      -1.095705110849e-14 
   84       2.943792674156e-10       7.016748489507e-14      -1.709613388542e-12       3.004651054700e-16       1.687556147842e-11       2.208822231798e-12      -1.106574006778e-14 
   85       2.979866825908e-10       7.219368895359e-14      -1.787247111878e-12       3.077032233998e-16       1.638198360389e-11       2.154836914554e-12      -1.112227482141e-14 
   86       3.016247778437e-10       7.422618741049e-14      -1.865809735414e-12       3.150296280373e-16       1.590672648847e-11       2.102676053938e-12      -1.112882730583e-14 
   87       3.052940382682e-10       7.626372257993e-14      -1.945272789774e-12       3.224443435134e-16       1.544954836855e-11       2.052323321040e-12      -1.108801953887e-14 
   88       3.089947292265e-10       7.830503908120e-14      -2.025608596826e-12       3.299473890486e-16       1.500998468499e-11       2.003738996225e-12      -1.100293881264e-14 
   89       3.127268851726e-10       8.034888527535e-14      -2.106790350841e-12       3.375387788068e-16       1.458733921445e-11       1.956859021158e-12      -1.087715288644e-14 
   90       3.164902984751e-10       8.239401470176e-14      -2.188792199647e-12       3.452185217478e-16       1.418067520075e-11       1.911594050842e-12      -1.071472517971e-14 
   91       3.202845082407e-10       8.443918751474e-14      -2.271589325785e-12       3.529866214810e-16       1.378880648621e-11       1.867828505648e-12      -1.052022996498e-14 
   92       3.241087891374e-10       8.648317192015e-14      -2.355158027668e-12       3.608430761181e-16       1.341028864297e-11       1.825419623352e-12      -1.029876756076e-14 
   93       3.279624088110e-10       8.852463566579e-14      -2.439467724372e-12       3.687879952373e-16       1.304376170486e-11       1.784233305253e-12      -1.005549145761e-14 
   94       3.318454687000e-10       9.056179872392e-14      -2.524455418234e-12       3.768219712164e-16       1.268905659045e-11       1.744259880634e-12      -9.794075341886e-15 
   95       3.357581696029e-10       9.259273078524e-14      -2.610047523606e-12       3.849457637364e-16       1.234623946314e-11       1.705514081603e-12      -9.518042529632e-15 
   96       3.397005469629e-10       9.461545647907e-14      -2.696167571681e-12       3.931601890883e-16       1.201527096966e-11       1.667999363394e-12      -9.231241869674e-15 
   97       3.436724633784e-10       9.662795530072e-14      -2.782736180787e-12       4.014661216338e-16       1.169600219780e-11       1.631707461468e-12      -8.937856236926e-15 
   98       3.476736011125e-10       9.862816153892e-14      -2.869671026676e-12       4.098644952662e-16       1.138817063411e-11       1.596617948608e-12      -8.642411025709e-15 
   99       3.517034546035e-10       1.006139642031e-13      -2.956886812822e-12       4.183563048708e-16       1.109139612158e-11       1.562697792024e-12      -8.349782643069e-15 
  100       3.557613229751e-10       1.025832069511e-13      -3.044295240714e-12       4.269426077859e-16       1.080517681740e-11       1.529900910449e-12      -8.065207002092e-15 
  101       3.598463025462e-10       1.045336880159e-13      -3.131804980142e-12       4.356245252634e-16       1.052888515065e-11       1.498167731242e-12      -7.794288015220e-15 
  102       3.639572793416e-10       1.064631601338e-13      -3.219321639499e-12       4.444032439297e-16       1.026176377997e-11       1.467424747485e-12      -7.543006087572e-15 
  103       3.680929216015e-10       1.083693304712e-13      -3.306747736068e-12       4.532800172460e-16       1.000292155131e-11       1.437584075081e-12      -7.317726610256e-15 
  104       3.722519638930e-10       1.102499691737e-13      -3.393989187141e-12       4.622560353728e-16       9.751535524346e-12       1.408563463129e-12      -7.123733082984e-15 
  105       3.764341192848e-10       1.121032518680e-13      -3.480975845991e-12       4.713320115944e-16       9.507496839116e-12       1.380350357486e-12      -6.960582515142e-15 
  106       3.806392770043e-10       1.139274635071e-13      -3.567643697543e-12       4.805085424894e-16       9.270844966727e-12       1.352945705851e-12      -6.826135520264e-15 
  107       3.848672176065e-10       1.157208949878e-13      -3.653928626716e-12       4.897862345528e-16       9.041567675329e-12       1.326344061778e-12      -6.717968032804e-15 
