# dimensionless total [l(l+1)/2pi] C_l's
# for l=2 to 3000, i.e. number of multipoles equal to 2999
#
# -> if you prefer output in CAMB/HealPix/LensPix units/order, set 'format' to 'camb' in input file
# -> if you don't want to see such a header, set 'headers' to 'no' in input file
# -> for CMB lensing (phi), these are C_l^phi-phi for the lensing potential.
#    Remember the conversion factors:
#    C_l^dd (deflection) = l(l+1) C_l^phi-phi
#    C_l^gg (shear/convergence) = 1/4 (l(l+1))^2 C_l^phi-phi
#
# 1:l     2:TT                     3:EE                     4:TE                     5:BB                     6:phiphi                 7:TPhi                   8:Ephi               
    2       1.495445634434e-10       7.309028259662e-15       4.815213751949e-13       0.000000000000e+00       8.628852887904e-09       4.854756471416e-10      -2.515854886642e-12 
    3       1.409372401309e-10       1.238792110674e-14       6.068771232600e-13       0.000000000000e+00       5.411288448615e-09       3.469567533250e-10      -2.211507093648e-12 
    4       1.324628583097e-10       1.446513051922e-14       6.278031025460e-13       0.000000000000e+00       3.776591282924e-09       2.639780830685e-10      -1.764115931940e-12 
    5       1.257510717810e-10       1.337853734072e-14       5.879602737207e-13       0.000000000000e+00       2.821986978390e-09       2.093813341603e-10      -1.309529232455e-12 
    6       1.208059354081e-10       1.032310735480e-14       5.174033544960e-13       0.000000000000e+00       2.205215569765e-09       1.709427471419e-10      -8.948468784763e-13 
    7       1.173301840369e-10       6.841599262766e-15       4.365369555701e-13       0.000000000000e+00       1.778237378016e-09       1.425662008453e-10      -5.443858611327e-13 
    8       1.150040761272e-10       4.042373471620e-15       3.576648453252e-13       0.000000000000e+00       1.468354831376e-09       1.208853413293e-10      -2.689330266794e-13 
    9       1.135832817429e-10       2.336357447319e-15       2.880607465843e-13       0.000000000000e+00       1.235840689900e-09       1.038808714184e-10      -7.009943856259e-14 
   10       1.128530642197e-10       1.571654189695e-15       2.317810995879e-13       0.000000000000e+00       1.056624562515e-09       9.029292794952e-11       5.745608948224e-14 
   11       1.126731072081e-10       1.345906357217e-15       1.905579856232e-13       0.000000000000e+00       8.886903866965e-10       7.950613018405e-11       1.233289384647e-13 
   12       1.129348407888e-10       1.288312771478e-15       1.640637942543e-13       0.000000000000e+00       7.765282945884e-10       7.028414149389e-11       1.421596658406e-13 
   13       1.135183682900e-10       1.200675489412e-15       1.505299785078e-13       0.000000000000e+00       6.844567522470e-10       6.274641566940e-11       1.277326668867e-13 
   14       1.143251173110e-10       1.054792351050e-15       1.474045665329e-13       0.000000000000e+00       6.078510764062e-10       5.620931102759e-11       9.279530883991e-14 
   15       1.153613441298e-10       9.105419006341e-16       1.516731357001e-13       0.000000000000e+00       5.433697308416e-10       5.074766557886e-11       4.959325916536e-14 
   16       1.165882297229e-10       8.293972456621e-16       1.602918237583e-13       0.000000000000e+00       4.885458196102e-10       4.611873777305e-11       7.232599402788e-15 
   17       1.179229728795e-10       8.287729981715e-16       1.707810159312e-13       0.000000000000e+00       4.415158271203e-10       4.212232368752e-11      -2.792920989300e-14 
   18       1.193694832512e-10       8.811664913058e-16       1.812743539296e-13       0.000000000000e+00       4.006948534297e-10       3.857275071023e-11      -5.233437815296e-14 
   19       1.209355984435e-10       9.538938903029e-16       1.907922723893e-13       0.000000000000e+00       3.654377597957e-10       3.544040333047e-11      -6.510267566988e-14 
   20       1.225654271884e-10       1.013474374968e-15       1.985915131081e-13       0.000000000000e+00       3.343839642877e-10       3.267209266625e-11      -6.706968105096e-14 
   21       1.242710194330e-10       1.062835453955e-15       2.047515623082e-13       0.000000000000e+00       3.070460183142e-10       3.022363098018e-11      -6.038509974835e-14 
   22       1.260522166473e-10       1.120091047983e-15       2.097250818982e-13       0.000000000000e+00       2.827708451976e-10       2.801368522647e-11      -4.840835725107e-14 
   23       1.278980692139e-10       1.204636897602e-15       2.139598741099e-13       0.000000000000e+00       2.612249622078e-10       2.601114812427e-11      -3.407760163019e-14 
   24       1.297762752037e-10       1.335071816032e-15       2.179762364602e-13       0.000000000000e+00       2.419103755512e-10       2.418236916337e-11      -2.047699566314e-14 
   25       1.317038528357e-10       1.511806384886e-15       2.222690053653e-13       0.000000000000e+00       2.246001943288e-10       2.253675131905e-11      -9.447692818869e-15 
   26       1.336933630340e-10       1.727825708493e-15       2.272836207039e-13       0.000000000000e+00       2.089814701518e-10       2.107674185262e-11      -2.331963572023e-15 
   27       1.357258662778e-10       1.976713090677e-15       2.330402960877e-13       0.000000000000e+00       1.948669552607e-10       1.976942218498e-11       6.620164505508e-16 
   28       1.377655553878e-10       2.252059016939e-15       2.393548380158e-13       0.000000000000e+00       1.820133633938e-10       1.856394614678e-11      -9.535068875247e-17 
   29       1.398221671001e-10       2.553380061315e-15       2.459233158419e-13       0.000000000000e+00       1.703551341432e-10       1.745583123447e-11      -3.801298092558e-15 
   30       1.419100113325e-10       2.881920556545e-15       2.523100517898e-13       0.000000000000e+00       1.597671772891e-10       1.644627379575e-11      -9.226781892483e-15 
   31       1.440330138191e-10       3.238305216735e-15       2.580012320495e-13       0.000000000000e+00       1.500336325586e-10       1.552714487907e-11      -1.492879253561e-14 
   32       1.461940647700e-10       3.620421622163e-15       2.626246478225e-13       0.000000000000e+00       1.411043122456e-10       1.468918375404e-11      -2.002932825177e-14 
   33       1.483864421678e-10       4.024643715963e-15       2.658015472457e-13       0.000000000000e+00       1.329161473471e-10       1.391495035764e-11      -2.370100155186e-14 
   34       1.505972481950e-10       4.447821750213e-15       2.671642896736e-13       0.000000000000e+00       1.253546395376e-10       1.318306559249e-11      -2.518536552178e-14 
   35       1.528331051215e-10       4.892548794636e-15       2.666313449264e-13       0.000000000000e+00       1.183811470505e-10       1.249403035400e-11      -2.459199377935e-14 
   36       1.551017939381e-10       5.363802919328e-15       2.642304117682e-13       0.000000000000e+00       1.119397842650e-10       1.185257047161e-11      -2.239001326392e-14 
   37       1.574057115461e-10       5.866752695513e-15       2.600334965712e-13       0.000000000000e+00       1.059467860823e-10       1.126049845497e-11      -1.915236229039e-14 
   38       1.597453326695e-10       6.403723373481e-15       2.541720855933e-13       0.000000000000e+00       1.003867041960e-10       1.071666163721e-11      -1.535852074520e-14 
   39       1.621156603722e-10       6.976274525586e-15       2.468325983397e-13       0.000000000000e+00       9.524192742883e-11       1.021642816965e-11      -1.154177572245e-14 
   40       1.645044104053e-10       7.586013688293e-15       2.382567171654e-13       0.000000000000e+00       9.046341892812e-11       9.751287299974e-12      -8.351287883812e-15 
   41       1.668976471400e-10       8.234301075483e-15       2.286728536361e-13       0.000000000000e+00       8.598780802966e-11       9.311563349019e-12      -6.389572402053e-15 
   42       1.693005664311e-10       8.921245926943e-15       2.180555221927e-13       0.000000000000e+00       8.180194785811e-11       8.896396580144e-12      -5.644081943207e-15 
   43       1.717223100403e-10       9.646384965140e-15       2.062933712562e-13       0.000000000000e+00       7.789475909992e-11       8.506467846947e-12      -5.882649384938e-15 
   44       1.741699653707e-10       1.040893128965e-14       1.932528549122e-13       0.000000000000e+00       7.423785766345e-11       8.141129986345e-12      -6.802788330927e-15 
   45       1.766482268239e-10       1.120805772053e-14       1.787883783478e-13       0.000000000000e+00       7.079569974290e-11       7.798850818722e-12      -8.072880348541e-15 
   46       1.791588706068e-10       1.204389369937e-14       1.627799994964e-13       0.000000000000e+00       6.756288048847e-11       7.478969113986e-12      -9.481071399342e-15 
   47       1.817006815296e-10       1.291679332031e-14       1.451043650886e-13       0.000000000000e+00       6.453564254045e-11       7.180269388762e-12      -1.082320100045e-14 
   48       1.842692613536e-10       1.382705643218e-14       1.256231434252e-13       0.000000000000e+00       6.170062565539e-11       6.900390366926e-12      -1.185912098007e-14 
   49       1.868567647535e-10       1.477492661740e-14       1.041821495919e-13       0.000000000000e+00       5.903415255509e-11       6.635742901080e-12      -1.231080787385e-14 
   50       1.894551126198e-10       1.576060017515e-14       8.065389529049e-14       0.000000000000e+00       5.650936180517e-11       6.382550486002e-12      -1.195057015786e-14 
   51       1.920672727904e-10       1.678426063463e-14       5.508088377979e-14       0.000000000000e+00       5.412154580199e-11       6.140494185444e-12      -1.089827550229e-14 
   52       1.946985849400e-10       1.784605011644e-14       2.756969860652e-14       0.000000000000e+00       5.186845604210e-11       5.909915201753e-12      -9.401539657366e-15 
   53       1.973534528479e-10       1.894605767933e-14      -1.747880491329e-15       0.000000000000e+00       4.974272051257e-11       5.690750199197e-12      -7.754979369200e-15 
   54       2.000352439992e-10       2.008431781698e-14      -3.271370885854e-14       0.000000000000e+00       4.773149881194e-11       5.482502053300e-12      -6.302564533216e-15 
   55       2.027463320866e-10       2.126082601638e-14      -6.518176293599e-14       0.000000000000e+00       4.582040097047e-11       5.284469718198e-12      -5.357069248319e-15 
   56       2.054884668840e-10       2.247559340298e-14      -9.914747167710e-14       0.000000000000e+00       4.400717401753e-11       5.096571709826e-12      -4.929603989203e-15 
   57       2.082623204018e-10       2.372860303742e-14      -1.346484667163e-13       0.000000000000e+00       4.229081136873e-11       4.918675958793e-12      -4.937013400626e-15 
   58       2.110672592709e-10       2.501979322299e-14      -1.717281106252e-13       0.000000000000e+00       4.066741214722e-11       4.750339877374e-12      -5.278031961875e-15 
   59       2.139012499117e-10       2.634905666703e-14      -2.104358731758e-13       0.000000000000e+00       3.913000242279e-11       4.590791204352e-12      -5.832406227202e-15 
   60       2.167607637037e-10       2.771623964244e-14      -2.508277076053e-13       0.000000000000e+00       3.766835645109e-11       4.438908849856e-12      -6.460017066271e-15 
   61       2.196422663807e-10       2.912108522510e-14      -2.929545875333e-13       0.000000000000e+00       3.627183675246e-11       4.293526654038e-12      -7.029829833497e-15 
   62       2.225472914143e-10       3.056305001480e-14      -3.368242597867e-13       0.000000000000e+00       3.493906369706e-11       4.154467672126e-12      -7.516324114253e-15 
   63       2.254783423097e-10       3.204144460015e-14      -3.824315352030e-13       0.000000000000e+00       3.367010902525e-11       4.021709111123e-12      -7.923249574886e-15 
   64       2.284373651853e-10       3.355548329117e-14      -4.297693710181e-13       0.000000000000e+00       3.246358720003e-11       3.895071169011e-12      -8.255775300763e-15 
   65       2.314257042085e-10       3.510428150633e-14      -4.788288714771e-13       0.000000000000e+00       3.131657243164e-11       3.774208125405e-12      -8.520558454346e-15 
   66       2.344440570308e-10       3.668685315957e-14      -5.295992884441e-13       0.000000000000e+00       3.022451570225e-11       3.658599432204e-12      -8.725812933253e-15 
   67       2.374924302240e-10       3.830210804738e-14      -5.820680220129e-13       0.000000000000e+00       2.918116179064e-11       3.547540804248e-12      -8.881378028336e-15 
   68       2.405706057941e-10       3.994896988941e-14      -6.362205667578e-13       0.000000000000e+00       2.818022008171e-11       3.440341869611e-12      -8.997695096632e-15 
   69       2.436797501068e-10       4.162676406548e-14      -6.920403364757e-13       0.000000000000e+00       2.722095560109e-11       3.336985541459e-12      -9.082343326439e-15 
   70       2.468210524130e-10       4.333490411130e-14      -7.495088048653e-13       0.000000000000e+00       2.630358701608e-11       3.237586861025e-12      -9.142922142175e-15 
   71       2.499952116871e-10       4.507277848054e-14      -8.086055559786e-13       0.000000000000e+00       2.542759565039e-11       3.142194697896e-12      -9.188121081538e-15 
   72       2.532024051332e-10       4.683975101769e-14      -8.693082834407e-13       0.000000000000e+00       2.459168736261e-11       3.050788123526e-12      -9.227760525561e-15 
   73       2.564422566924e-10       4.863516143085e-14      -9.315927896705e-13       0.000000000000e+00       2.379375442476e-11       2.963272784735e-12      -9.272832428676e-15 
   74       2.597138055489e-10       5.045832576452e-14      -9.954329851002e-13       0.000000000000e+00       2.303083740070e-11       2.879477277225e-12      -9.335541048775e-15 
   75       2.630154746367e-10       5.230853687245e-14      -1.060800887395e-12       0.000000000000e+00       2.229908702472e-11       2.799149519087e-12      -9.429343677271e-15 
   76       2.663457143401e-10       5.418490518892e-14      -1.127663727754e-12       0.000000000000e+00       2.159471980143e-11       2.722023593740e-12      -9.565052511132e-15 
   77       2.697051387268e-10       5.608584647586e-14      -1.195974662322e-12       0.000000000000e+00       2.091717025316e-11       2.648042367418e-12      -9.738229575586e-15 
   78       2.730947234600e-10       5.800950108900e-14      -1.265680357675e-12       0.000000000000e+00       2.026644691171e-11       2.577169067063e-12      -9.939556523786e-15 
   79       2.765151478007e-10       5.995388263566e-14      -1.336723674343e-12       0.000000000000e+00       1.964217213465e-11       2.509318266092e-12      -1.015853018558e-14 
   80       2.799667769606e-10       6.191687517281e-14      -1.409043606708e-12       0.000000000000e+00       1.904356436094e-11       2.444353702943e-12      -1.038342252809e-14 
   81       2.834496444532e-10       6.389623040503e-14      -1.482575222904e-12       0.000000000000e+00       1.846942036645e-11       2.382086099613e-12      -1.060124061633e-14 
   82       2.869634344467e-10       6.588956488253e-14      -1.557249604716e-12       0.000000000000e+00       1.791809751952e-11       2.322270980198e-12      -1.079768657373e-14 
   83       2.905074641153e-10       6.789435719911e-14      -1.632993787477e-12       0.000000000000e+00       1.738749603657e-11       2.264606489438e-12      -1.095711754279e-14 
   84       2.940810507619e-10       6.990819717364e-14      -1.709739100365e-12       0.000000000000e+00       1.687556934654e-11       2.208804531194e-12      -1.106579191713e-14 
   85       2.976847217697e-10       7.192958699519e-14      -1.787447907584e-12       0.000000000000e+00       1.638199126561e-11       2.154822512502e-12      -1.112231407303e-14 
   86       3.013191738103e-10       7.395726837094e-14      -1.866091210722e-12       0.000000000000e+00       1.590673395623e-11       2.102666196807e-12      -1.112885579354e-14 
   87       3.049848948923e-10       7.598998376325e-14      -1.945640722393e-12       0.000000000000e+00       1.544955565379e-11       2.052318864639e-12      -1.108803891653e-14 
   88       3.086821531794e-10       7.802647782262e-14      -2.026068947323e-12       0.000000000000e+00       1.500999179792e-11       2.003740364427e-12      -1.100295052679e-14 
   89       3.124109858095e-10       8.006549882076e-14      -2.107349263424e-12       0.000000000000e+00       1.458734616386e-11       1.956866163304e-12      -1.087715814804e-14 
   90       3.161711877135e-10       8.210580008358e-14      -2.189456002883e-12       0.000000000000e+00       1.418068199379e-11       1.911606397921e-12      -1.071472493495e-14 
   91       3.199623004339e-10       8.414614142418e-14      -2.272364533239e-12       0.000000000000e+00       1.378881312815e-11       1.867844925248e-12      -1.052022486522e-14 
   92       3.237836009435e-10       8.618529057589e-14      -2.356051338465e-12       0.000000000000e+00       1.341029513699e-11       1.825438373391e-12      -1.029875793160e-14 
   93       3.276343596842e-10       8.822191433928e-14      -2.440486004969e-12       0.000000000000e+00       1.304376805241e-11       1.784252148253e-12      -1.005547735632e-14 
   94       3.315146833611e-10       9.025423018319e-14      -2.525605624725e-12       0.000000000000e+00       1.268906279347e-11       1.744276709904e-12      -9.794056897207e-15 
   95       3.354247788216e-10       9.228030465011e-14      -2.611336674368e-12       0.000000000000e+00       1.234624552471e-11       1.705527110601e-12      -9.518020040273e-15 
   96       3.393646877441e-10       9.429815889361e-14      -2.697602737620e-12       0.000000000000e+00       1.201527689404e-11       1.668007161162e-12      -9.231215817577e-15 
   97       3.433342791530e-10       9.630576859739e-14      -2.784324475249e-12       0.000000000000e+00       1.169600799050e-11       1.631708989056e-12      -8.937827300899e-15 
   98       3.473332419322e-10       9.830106389446e-14      -2.871419595035e-12       0.000000000000e+00       1.138817630195e-11       1.596612596509e-12      -8.642380095388e-15 
   99       3.513610773402e-10       1.002819292863e-13      -2.958802821727e-12       0.000000000000e+00       1.109140167277e-11       1.562685418590e-12      -8.349750833211e-15 
  100       3.554170915238e-10       1.022462035619e-13      -3.046385867010e-12       0.000000000000e+00       1.080518226158e-11       1.529881881314e-12      -8.065175667208e-15 
  101       3.595003880330e-10       1.041916797170e-13      -3.134077399460e-12       0.000000000000e+00       1.052889049896e-11       1.498142959731e-12      -7.794258764543e-15 
  102       3.636098603346e-10       1.061161048732e-13      -3.221783014511e-12       0.000000000000e+00       1.026176904514e-11       1.467395736030e-12      -7.542980800355e-15 
  103       3.677441843271e-10       1.080171801970e-13      -3.309405204417e-12       0.000000000000e+00       1.000292674770e-11       1.437552957628e-12      -7.317707451411e-15 
  104       3.719021018821e-10       1.098926694760e-13      -3.396849869853e-12       0.000000000000e+00       9.751540667511e-12       1.408532884308e-12      -7.123722422406e-15 
  105       3.760833312143e-10       1.117407417245e-13      -3.484046921220e-12       0.000000000000e+00       9.507501943752e-12       1.380322834816e-12      -6.960582542574e-15 
  106       3.802877661066e-10       1.135596749241e-13      -3.570932417232e-12       0.000000000000e+00       9.270850045998e-12       1.352923440611e-12      -6.826148123923e-15 
  107       3.845151916280e-10       1.153477525983e-13      -3.657442313132e-12       0.000000000000e+00       9.041572740701e-12       1.326328907076e-12      -6.717994770269e-15 
